# Temperatura_=_20.0
# Concentracion g/m^3_=_10770.0
# C_Vs_to_Am_M_A/Vsm_=_25649819763.59163
# pendiente_HvsI_1/m_=_3716.3
# ordenada_HvsI_A/m_=_1297.0
# frecuencia_Hz_=_311944.11457748123
# Promedio de 26 ciclos

Tiempo_(s)	Campo_(V.s)	Magnetizacion_(V.s)	Campo_(kA/m)	Magnetizacion_(A/m)
0.000000e+00	-4.367942e-09	-1.179223e-08	-3.760767e+01	-2.992562e+02
1.000000e-08	-4.365819e-09	-1.178577e-08	-3.758940e+01	-2.993189e+02
2.000000e-08	-4.362065e-09	-1.178060e-08	-3.755708e+01	-2.992492e+02
3.000000e-08	-4.356937e-09	-1.177528e-08	-3.751292e+01	-2.989373e+02
4.000000e-08	-4.350412e-09	-1.175458e-08	-3.745675e+01	-2.983918e+02
5.000000e-08	-4.342536e-09	-1.172778e-08	-3.738893e+01	-2.977446e+02
6.000000e-08	-4.333127e-09	-1.170940e-08	-3.730792e+01	-2.971363e+02
7.000000e-08	-4.321929e-09	-1.168914e-08	-3.721150e+01	-2.965921e+02
8.000000e-08	-4.308899e-09	-1.166059e-08	-3.709931e+01	-2.960105e+02
9.000000e-08	-4.293629e-09	-1.157056e-08	-3.696784e+01	-2.952675e+02
1.000000e-07	-4.275934e-09	-1.145937e-08	-3.681549e+01	-2.943318e+02
1.100000e-07	-4.256377e-09	-1.147292e-08	-3.664710e+01	-2.932892e+02
1.200000e-07	-4.235430e-09	-1.150059e-08	-3.646675e+01	-2.922752e+02
1.300000e-07	-4.213364e-09	-1.141720e-08	-3.627676e+01	-2.913978e+02
1.400000e-07	-4.190275e-09	-1.144584e-08	-3.607796e+01	-2.907143e+02
1.500000e-07	-4.165679e-09	-1.147153e-08	-3.586620e+01	-2.902479e+02
1.600000e-07	-4.139230e-09	-1.135030e-08	-3.563847e+01	-2.899956e+02
1.700000e-07	-4.111359e-09	-1.139735e-08	-3.539850e+01	-2.899142e+02
1.800000e-07	-4.082077e-09	-1.146081e-08	-3.514638e+01	-2.899216e+02
1.900000e-07	-4.051237e-09	-1.132054e-08	-3.488085e+01	-2.899343e+02
2.000000e-07	-4.019279e-09	-1.131014e-08	-3.460569e+01	-2.899081e+02
2.100000e-07	-3.985857e-09	-1.143414e-08	-3.431793e+01	-2.898342e+02
2.200000e-07	-3.950620e-09	-1.133081e-08	-3.401454e+01	-2.896932e+02
2.300000e-07	-3.913894e-09	-1.123697e-08	-3.369833e+01	-2.894354e+02
2.400000e-07	-3.875651e-09	-1.133646e-08	-3.336906e+01	-2.890326e+02
2.500000e-07	-3.836014e-09	-1.125935e-08	-3.302779e+01	-2.885512e+02
2.600000e-07	-3.795085e-09	-1.115943e-08	-3.267540e+01	-2.881385e+02
2.700000e-07	-3.752470e-09	-1.121738e-08	-3.230848e+01	-2.878901e+02
2.800000e-07	-3.708197e-09	-1.113280e-08	-3.192729e+01	-2.877006e+02
2.900000e-07	-3.662529e-09	-1.106050e-08	-3.153410e+01	-2.872586e+02
3.000000e-07	-3.615479e-09	-1.110363e-08	-3.112900e+01	-2.862273e+02
3.100000e-07	-3.566997e-09	-1.100290e-08	-3.071157e+01	-2.844711e+02
3.200000e-07	-3.516734e-09	-1.094976e-08	-3.027881e+01	-2.821312e+02
3.300000e-07	-3.464581e-09	-1.098720e-08	-2.982977e+01	-2.794910e+02
3.400000e-07	-3.410995e-09	-1.077633e-08	-2.936840e+01	-2.767671e+02
3.500000e-07	-3.356233e-09	-1.061963e-08	-2.889690e+01	-2.740152e+02
3.600000e-07	-3.300311e-09	-1.064239e-08	-2.841542e+01	-2.712037e+02
3.700000e-07	-3.243127e-09	-1.044028e-08	-2.792307e+01	-2.683325e+02
3.800000e-07	-3.184484e-09	-1.027860e-08	-2.741816e+01	-2.654526e+02
3.900000e-07	-3.124519e-09	-1.028283e-08	-2.690186e+01	-2.625805e+02
4.000000e-07	-3.063450e-09	-1.007169e-08	-2.637606e+01	-2.596365e+02
4.100000e-07	-3.001320e-09	-9.869254e-09	-2.584112e+01	-2.565068e+02
4.200000e-07	-2.938202e-09	-9.835888e-09	-2.529768e+01	-2.531714e+02
4.300000e-07	-2.874142e-09	-9.664507e-09	-2.474612e+01	-2.497474e+02
4.400000e-07	-2.808868e-09	-9.489333e-09	-2.418412e+01	-2.463773e+02
4.500000e-07	-2.742165e-09	-9.432510e-09	-2.360982e+01	-2.430690e+02
4.600000e-07	-2.674353e-09	-9.264251e-09	-2.302596e+01	-2.396618e+02
4.700000e-07	-2.605697e-09	-9.049351e-09	-2.243484e+01	-2.359665e+02
4.800000e-07	-2.536103e-09	-8.924798e-09	-2.183564e+01	-2.319465e+02
4.900000e-07	-2.465507e-09	-8.777995e-09	-2.122781e+01	-2.277572e+02
5.000000e-07	-2.394020e-09	-8.593938e-09	-2.061231e+01	-2.236053e+02
5.100000e-07	-2.321724e-09	-8.453393e-09	-1.998984e+01	-2.195703e+02
5.200000e-07	-2.248447e-09	-8.315825e-09	-1.935893e+01	-2.155594e+02
5.300000e-07	-2.173969e-09	-8.146137e-09	-1.871768e+01	-2.114231e+02
5.400000e-07	-2.098398e-09	-7.968785e-09	-1.806702e+01	-2.070993e+02
5.500000e-07	-2.021996e-09	-7.790655e-09	-1.740921e+01	-2.026493e+02
5.600000e-07	-1.944877e-09	-7.616392e-09	-1.674522e+01	-1.981731e+02
5.700000e-07	-1.867037e-09	-7.436589e-09	-1.607502e+01	-1.937135e+02
5.800000e-07	-1.788413e-09	-7.259535e-09	-1.539807e+01	-1.892443e+02
5.900000e-07	-1.708947e-09	-7.107523e-09	-1.471387e+01	-1.847280e+02
6.000000e-07	-1.628683e-09	-6.938747e-09	-1.402280e+01	-1.801578e+02
6.100000e-07	-1.547717e-09	-6.740209e-09	-1.332570e+01	-1.755412e+02
6.200000e-07	-1.466125e-09	-6.558581e-09	-1.262320e+01	-1.708622e+02
6.300000e-07	-1.383980e-09	-6.378853e-09	-1.191593e+01	-1.660864e+02
6.400000e-07	-1.301348e-09	-6.177777e-09	-1.120447e+01	-1.612080e+02
6.500000e-07	-1.218275e-09	-5.987765e-09	-1.048922e+01	-1.562761e+02
6.600000e-07	-1.134810e-09	-5.809082e-09	-9.770591e+00	-1.513561e+02
6.700000e-07	-1.050997e-09	-5.617036e-09	-9.048963e+00	-1.464605e+02
6.800000e-07	-9.668741e-10	-5.426563e-09	-8.324671e+00	-1.415277e+02
6.900000e-07	-8.824794e-10	-5.236872e-09	-7.598038e+00	-1.364776e+02
7.000000e-07	-7.978191e-10	-5.027089e-09	-6.869119e+00	-1.312893e+02
7.100000e-07	-7.129059e-10	-4.816399e-09	-6.138021e+00	-1.260203e+02
7.200000e-07	-6.277685e-10	-4.622108e-09	-5.404995e+00	-1.207494e+02
7.300000e-07	-5.424325e-10	-4.421059e-09	-4.670257e+00	-1.155042e+02
7.400000e-07	-4.569231e-10	-4.207046e-09	-3.934026e+00	-1.102448e+02
7.500000e-07	-3.712383e-10	-3.999424e-09	-3.196286e+00	-1.049105e+02
7.600000e-07	-2.853848e-10	-3.794959e-09	-2.457093e+00	-9.947354e+01
7.700000e-07	-1.994169e-10	-3.582535e-09	-1.716916e+00	-9.394764e+01
7.800000e-07	-1.133987e-10	-3.366635e-09	-9.763047e-01	-8.835846e+01
7.900000e-07	-2.735831e-11	-3.151015e-09	-2.355024e-01	-8.271776e+01
8.000000e-07	5.870802e-11	-2.930423e-09	5.055231e-01	-7.702621e+01
8.100000e-07	1.447824e-10	-2.707129e-09	1.246618e+00	-7.128738e+01
8.200000e-07	2.308129e-10	-2.483290e-09	1.987335e+00	-6.550559e+01
8.300000e-07	3.167411e-10	-2.251648e-09	2.727171e+00	-5.967030e+01
8.400000e-07	4.025360e-10	-2.017007e-09	3.465859e+00	-5.375422e+01
8.500000e-07	4.881842e-10	-1.789755e-09	4.203284e+00	-4.773644e+01
8.600000e-07	5.736534e-10	-1.562661e-09	4.939168e+00	-4.162603e+01
8.700000e-07	6.588942e-10	-1.326328e-09	5.673085e+00	-3.545488e+01
8.800000e-07	7.438529e-10	-1.085866e-09	6.404573e+00	-2.924340e+01
8.900000e-07	8.285259e-10	-8.427344e-10	7.133602e+00	-2.297795e+01
9.000000e-07	9.129462e-10	-5.904634e-10	7.860456e+00	-1.662807e+01
9.100000e-07	9.971104e-10	-3.351102e-10	8.585105e+00	-1.018505e+01
9.200000e-07	1.080985e-09	-8.442369e-11	9.307260e+00	-3.676468e+00
9.300000e-07	1.164523e-09	1.685542e-10	1.002652e+01	2.861846e+00
9.400000e-07	1.247655e-09	4.250418e-10	1.074228e+01	9.424408e+00
9.500000e-07	1.330300e-09	6.775049e-10	1.145385e+01	1.603905e+01
9.600000e-07	1.412409e-09	9.305933e-10	1.216079e+01	2.272849e+01
9.700000e-07	1.493944e-09	1.192204e-09	1.286280e+01	2.947309e+01
9.800000e-07	1.574897e-09	1.457073e-09	1.355981e+01	3.621731e+01
9.900000e-07	1.655260e-09	1.717184e-09	1.425173e+01	4.291397e+01
1.000000e-06	1.734964e-09	1.973788e-09	1.493797e+01	4.955955e+01
1.010000e-06	1.813942e-09	2.230424e-09	1.561796e+01	5.618630e+01
1.020000e-06	1.892201e-09	2.488878e-09	1.629177e+01	6.282526e+01
1.030000e-06	1.969747e-09	2.748704e-09	1.695944e+01	6.948143e+01
1.040000e-06	2.046569e-09	3.007100e-09	1.762087e+01	7.614085e+01
1.050000e-06	2.122630e-09	3.263204e-09	1.827575e+01	8.279004e+01
1.060000e-06	2.197792e-09	3.518741e-09	1.892288e+01	8.942003e+01
1.070000e-06	2.271872e-09	3.772987e-09	1.956070e+01	9.601574e+01
1.080000e-06	2.344826e-09	4.024356e-09	2.018883e+01	1.025554e+02
1.090000e-06	2.416793e-09	4.274903e-09	2.080846e+01	1.090302e+02
1.100000e-06	2.487875e-09	4.528259e-09	2.142048e+01	1.154623e+02
1.110000e-06	2.558050e-09	4.783994e-09	2.202468e+01	1.218920e+02
1.120000e-06	2.627282e-09	5.035167e-09	2.262076e+01	1.283389e+02
1.130000e-06	2.695625e-09	5.280882e-09	2.320919e+01	1.347783e+02
1.140000e-06	2.763081e-09	5.525202e-09	2.378998e+01	1.411609e+02
1.150000e-06	2.829393e-09	5.766923e-09	2.436092e+01	1.474578e+02
1.160000e-06	2.894397e-09	6.006070e-09	2.492060e+01	1.536819e+02
1.170000e-06	2.958280e-09	6.247456e-09	2.547062e+01	1.598630e+02
1.180000e-06	3.021172e-09	6.490776e-09	2.601212e+01	1.660070e+02
1.190000e-06	3.082997e-09	6.730427e-09	2.654443e+01	1.720854e+02
1.200000e-06	3.143759e-09	6.964111e-09	2.706759e+01	1.780668e+02
1.210000e-06	3.203526e-09	7.191719e-09	2.758217e+01	1.839487e+02
1.220000e-06	3.262048e-09	7.411623e-09	2.808605e+01	1.897502e+02
1.230000e-06	3.319060e-09	7.625858e-09	2.857691e+01	1.954759e+02
1.240000e-06	3.374715e-09	7.839927e-09	2.905610e+01	2.010959e+02
1.250000e-06	3.429157e-09	8.054213e-09	2.952484e+01	2.065718e+02
1.260000e-06	3.482302e-09	8.266930e-09	2.998241e+01	2.118966e+02
1.270000e-06	3.533962e-09	8.474204e-09	3.042720e+01	2.171000e+02
1.280000e-06	3.583909e-09	8.671833e-09	3.085724e+01	2.222067e+02
1.290000e-06	3.632210e-09	8.861316e-09	3.127310e+01	2.271964e+02
1.300000e-06	3.679105e-09	9.043652e-09	3.167687e+01	2.320160e+02
1.310000e-06	3.724668e-09	9.216497e-09	3.206917e+01	2.366333e+02
1.320000e-06	3.768975e-09	9.383730e-09	3.245064e+01	2.410727e+02
1.330000e-06	3.811893e-09	9.550859e-09	3.282016e+01	2.453896e+02
1.340000e-06	3.853168e-09	9.717122e-09	3.317553e+01	2.496071e+02
1.350000e-06	3.892927e-09	9.879027e-09	3.351786e+01	2.536870e+02
1.360000e-06	3.931305e-09	1.003120e-08	3.384829e+01	2.575660e+02
1.370000e-06	3.968294e-09	1.017138e-08	3.416676e+01	2.612175e+02
1.380000e-06	4.003898e-09	1.030134e-08	3.447331e+01	2.646711e+02
1.390000e-06	4.037861e-09	1.042292e-08	3.476573e+01	2.679726e+02
1.400000e-06	4.070156e-09	1.053731e-08	3.504378e+01	2.711339e+02
1.410000e-06	4.100991e-09	1.064750e-08	3.530926e+01	2.741294e+02
1.420000e-06	4.130377e-09	1.075598e-08	3.556228e+01	2.769362e+02
1.430000e-06	4.158345e-09	1.086154e-08	3.580308e+01	2.795639e+02
1.440000e-06	4.184626e-09	1.096053e-08	3.602936e+01	2.820368e+02
1.450000e-06	4.209077e-09	1.104929e-08	3.623987e+01	2.843536e+02
1.460000e-06	4.231931e-09	1.112716e-08	3.643664e+01	2.864821e+02
1.470000e-06	4.253294e-09	1.119570e-08	3.662058e+01	2.883976e+02
1.480000e-06	4.273243e-09	1.125862e-08	3.679234e+01	2.901228e+02
1.490000e-06	4.291635e-09	1.131897e-08	3.695069e+01	2.917139e+02
1.500000e-06	4.308294e-09	1.137545e-08	3.709413e+01	2.932065e+02
1.510000e-06	4.323254e-09	1.142574e-08	3.722293e+01	2.945832e+02
1.520000e-06	4.336539e-09	1.147067e-08	3.733731e+01	2.958006e+02
1.530000e-06	4.348027e-09	1.151103e-08	3.743622e+01	2.968444e+02
1.540000e-06	4.357567e-09	1.154462e-08	3.751835e+01	2.977418e+02
1.550000e-06	4.365332e-09	1.156932e-08	3.758521e+01	2.985177e+02
1.560000e-06	4.371513e-09	1.158645e-08	3.763843e+01	2.991489e+02
1.570000e-06	4.376184e-09	1.159975e-08	3.767865e+01	2.995852e+02
1.580000e-06	4.379274e-09	1.161121e-08	3.770525e+01	2.998198e+02
1.590000e-06	4.380559e-09	1.161856e-08	3.771631e+01	2.999272e+02
1.600000e-06	4.380158e-09	1.161831e-08	3.771285e+01	3.000076e+02
1.610000e-06	4.378280e-09	1.162165e-08	3.769668e+01	3.000844e+02
1.620000e-06	4.375042e-09	1.162733e-08	3.766881e+01	3.000669e+02
1.630000e-06	4.370427e-09	1.161359e-08	3.762907e+01	2.998304e+02
1.640000e-06	4.364143e-09	1.159034e-08	3.757496e+01	2.993425e+02
1.650000e-06	4.356267e-09	1.157365e-08	3.750715e+01	2.987081e+02
1.660000e-06	4.347049e-09	1.154925e-08	3.742779e+01	2.980800e+02
1.670000e-06	4.336444e-09	1.151163e-08	3.733647e+01	2.975239e+02
1.680000e-06	4.324265e-09	1.148562e-08	3.723161e+01	2.969675e+02
1.690000e-06	4.309947e-09	1.154074e-08	3.710833e+01	2.962794e+02
1.700000e-06	4.292976e-09	1.158074e-08	3.696222e+01	2.953946e+02
1.710000e-06	4.273607e-09	1.148546e-08	3.679544e+01	2.943696e+02
1.720000e-06	4.252401e-09	1.142909e-08	3.661286e+01	2.933347e+02
1.730000e-06	4.230105e-09	1.135847e-08	3.642090e+01	2.924109e+02
1.740000e-06	4.207302e-09	1.126487e-08	3.622456e+01	2.916687e+02
1.750000e-06	4.183224e-09	1.134005e-08	3.601725e+01	2.911391e+02
1.760000e-06	4.157166e-09	1.133124e-08	3.579289e+01	2.908275e+02
1.770000e-06	4.129842e-09	1.121549e-08	3.555763e+01	2.907040e+02
1.780000e-06	4.101220e-09	1.130231e-08	3.531120e+01	2.906956e+02
1.790000e-06	4.070591e-09	1.142553e-08	3.504749e+01	2.907137e+02
1.800000e-06	4.038445e-09	1.133187e-08	3.477071e+01	2.907008e+02
1.810000e-06	4.004892e-09	1.129426e-08	3.448182e+01	2.906417e+02
1.820000e-06	3.969763e-09	1.142400e-08	3.417936e+01	2.905244e+02
1.830000e-06	3.933535e-09	1.136570e-08	3.386743e+01	2.903058e+02
1.840000e-06	3.895786e-09	1.129088e-08	3.354242e+01	2.899432e+02
1.850000e-06	3.856170e-09	1.141799e-08	3.320133e+01	2.894714e+02
1.860000e-06	3.815105e-09	1.136514e-08	3.284776e+01	2.890239e+02
1.870000e-06	3.772576e-09	1.128396e-08	3.248159e+01	2.887287e+02
1.880000e-06	3.728758e-09	1.137905e-08	3.210431e+01	2.885472e+02
1.890000e-06	3.683683e-09	1.133031e-08	3.171622e+01	2.882158e+02
1.900000e-06	3.636912e-09	1.129632e-08	3.131352e+01	2.873797e+02
1.910000e-06	3.588737e-09	1.125658e-08	3.089874e+01	2.858284e+02
1.920000e-06	3.539314e-09	1.099368e-08	3.047321e+01	2.836292e+02
1.930000e-06	3.488305e-09	1.089217e-08	3.003402e+01	2.810471e+02
1.940000e-06	3.435741e-09	1.085479e-08	2.958145e+01	2.783352e+02
1.950000e-06	3.381593e-09	1.066187e-08	2.911524e+01	2.755937e+02
1.960000e-06	3.325972e-09	1.058991e-08	2.863635e+01	2.728026e+02
1.970000e-06	3.269160e-09	1.052773e-08	2.814720e+01	2.699447e+02
1.980000e-06	3.211132e-09	1.031883e-08	2.764758e+01	2.670625e+02
1.990000e-06	3.151958e-09	1.024385e-08	2.713810e+01	2.641924e+02
2.000000e-06	3.091725e-09	1.026523e-08	2.661949e+01	2.612819e+02
2.010000e-06	3.030219e-09	1.006823e-08	2.608993e+01	2.582139e+02
2.020000e-06	2.967338e-09	9.925462e-09	2.554853e+01	2.549308e+02
2.030000e-06	2.903226e-09	9.891856e-09	2.499653e+01	2.515156e+02
2.040000e-06	2.838021e-09	9.682896e-09	2.443512e+01	2.481212e+02
2.050000e-06	2.771784e-09	9.537956e-09	2.386482e+01	2.448060e+02
2.060000e-06	2.704600e-09	9.486089e-09	2.328637e+01	2.414495e+02
2.070000e-06	2.636501e-09	9.328861e-09	2.270004e+01	2.378501e+02
2.080000e-06	2.567201e-09	9.172338e-09	2.210337e+01	2.339146e+02
2.090000e-06	2.496581e-09	9.029678e-09	2.149534e+01	2.297513e+02
2.100000e-06	2.424947e-09	8.864753e-09	2.087857e+01	2.255728e+02
2.110000e-06	2.352542e-09	8.697598e-09	2.025518e+01	2.215076e+02
2.120000e-06	2.279372e-09	8.516850e-09	1.962518e+01	2.175061e+02
2.130000e-06	2.205346e-09	8.352032e-09	1.898782e+01	2.134181e+02
2.140000e-06	2.130444e-09	8.205343e-09	1.834292e+01	2.091465e+02
2.150000e-06	2.054639e-09	8.039613e-09	1.769024e+01	2.047222e+02
2.160000e-06	1.977888e-09	7.867050e-09	1.702942e+01	2.002458e+02
2.170000e-06	1.900220e-09	7.704180e-09	1.636071e+01	1.957821e+02
2.180000e-06	1.821602e-09	7.511613e-09	1.568382e+01	1.913206e+02
2.190000e-06	1.742154e-09	7.315197e-09	1.499977e+01	1.868203e+02
2.200000e-06	1.662145e-09	7.160344e-09	1.431090e+01	1.822649e+02
2.210000e-06	1.581632e-09	6.980595e-09	1.361768e+01	1.776621e+02
2.220000e-06	1.500539e-09	6.773432e-09	1.291948e+01	1.730046e+02
2.230000e-06	1.418867e-09	6.601208e-09	1.221629e+01	1.682595e+02
2.240000e-06	1.336662e-09	6.427542e-09	1.150851e+01	1.634079e+02
2.250000e-06	1.253951e-09	6.227307e-09	1.079637e+01	1.584843e+02
2.260000e-06	1.170800e-09	6.029492e-09	1.008045e+01	1.535566e+02
2.270000e-06	1.087349e-09	5.831483e-09	9.361936e+00	1.486579e+02
2.280000e-06	1.003648e-09	5.633828e-09	8.641275e+00	1.437450e+02
2.290000e-06	9.196513e-10	5.445654e-09	7.918067e+00	1.387346e+02
2.300000e-06	8.353353e-10	5.251154e-09	7.192112e+00	1.335830e+02
2.310000e-06	7.506655e-10	5.038169e-09	6.463111e+00	1.283286e+02
2.320000e-06	6.656080e-10	4.823765e-09	5.730773e+00	1.230526e+02
2.330000e-06	5.802679e-10	4.626348e-09	4.996002e+00	1.178020e+02
2.340000e-06	4.947159e-10	4.427059e-09	4.259408e+00	1.125535e+02
2.350000e-06	4.088890e-10	4.209722e-09	3.520447e+00	1.072459e+02
2.360000e-06	3.228007e-10	3.993177e-09	2.779234e+00	1.018386e+02
2.370000e-06	2.365535e-10	3.783177e-09	2.036654e+00	9.633556e+01
2.380000e-06	1.502251e-10	3.568650e-09	1.293374e+00	9.076270e+01
2.390000e-06	6.379000e-11	3.344873e-09	5.491756e-01	8.513676e+01
2.400000e-06	-2.270767e-11	3.114026e-09	-1.955623e-01	7.946003e+01
2.410000e-06	-1.091382e-10	2.886713e-09	-9.397221e-01	7.373446e+01
2.420000e-06	-1.954398e-10	2.667945e-09	-1.682770e+00	6.796551e+01
2.430000e-06	-2.815976e-10	2.448575e-09	-2.424581e+00	6.214816e+01
2.440000e-06	-3.675975e-10	2.212418e-09	-3.165032e+00	5.625844e+01
2.450000e-06	-4.534375e-10	1.966839e-09	-3.904105e+00	5.027053e+01
2.460000e-06	-5.390757e-10	1.731166e-09	-4.641442e+00	4.418403e+01
2.470000e-06	-6.244246e-10	1.496172e-09	-5.376288e+00	3.802725e+01
2.480000e-06	-7.094378e-10	1.251329e-09	-6.108245e+00	3.182756e+01
2.490000e-06	-7.941146e-10	9.999990e-10	-6.837305e+00	2.558109e+01
2.500000e-06	-8.784712e-10	7.491891e-10	-7.563609e+00	1.925826e+01
2.510000e-06	-9.625039e-10	5.031100e-10	-8.287125e+00	1.284075e+01
2.520000e-06	-1.046178e-09	2.560522e-10	-9.007558e+00	6.346989e+00
2.530000e-06	-1.129472e-09	2.610345e-12	-9.724707e+00	-1.850224e-01
2.540000e-06	-1.212379e-09	-2.606478e-10	-1.043853e+01	-6.738560e+00
2.550000e-06	-1.294885e-09	-5.251502e-10	-1.114891e+01	-1.333451e+01
2.560000e-06	-1.376947e-09	-7.832903e-10	-1.185545e+01	-2.000201e+01
2.570000e-06	-1.458520e-09	-1.044964e-09	-1.255779e+01	-2.673524e+01
2.580000e-06	-1.539574e-09	-1.311594e-09	-1.325567e+01	-3.348543e+01
2.590000e-06	-1.620101e-09	-1.577121e-09	-1.394899e+01	-4.019802e+01
2.600000e-06	-1.700138e-09	-1.838313e-09	-1.463811e+01	-4.685570e+01
2.610000e-06	-1.779659e-09	-2.095283e-09	-1.532278e+01	-5.348371e+01
2.620000e-06	-1.858446e-09	-2.354334e-09	-1.600113e+01	-6.011719e+01
2.630000e-06	-1.936257e-09	-2.617505e-09	-1.667108e+01	-6.676918e+01
2.640000e-06	-2.013042e-09	-2.881341e-09	-1.733218e+01	-7.342907e+01
2.650000e-06	-2.088869e-09	-3.140766e-09	-1.798505e+01	-8.008188e+01
2.660000e-06	-2.163816e-09	-3.400020e-09	-1.863034e+01	-8.671821e+01
2.670000e-06	-2.237912e-09	-3.663828e-09	-1.926830e+01	-9.332573e+01
2.680000e-06	-2.311140e-09	-3.921605e-09	-1.989879e+01	-9.988320e+01
2.690000e-06	-2.383543e-09	-4.170566e-09	-2.052217e+01	-1.063755e+02
2.700000e-06	-2.455150e-09	-4.418448e-09	-2.113870e+01	-1.128157e+02
2.710000e-06	-2.525798e-09	-4.670161e-09	-2.174698e+01	-1.192422e+02
2.720000e-06	-2.595304e-09	-4.926502e-09	-2.234542e+01	-1.256845e+02
2.730000e-06	-2.663700e-09	-5.181622e-09	-2.293430e+01	-1.321306e+02
2.740000e-06	-2.731103e-09	-5.432422e-09	-2.351464e+01	-1.385340e+02
2.750000e-06	-2.797531e-09	-5.680079e-09	-2.408658e+01	-1.448556e+02
2.760000e-06	-2.862953e-09	-5.927385e-09	-2.464986e+01	-1.510972e+02
2.770000e-06	-2.927417e-09	-6.172704e-09	-2.520488e+01	-1.572882e+02
2.780000e-06	-2.990889e-09	-6.408735e-09	-2.575138e+01	-1.634443e+02
2.790000e-06	-3.053077e-09	-6.638963e-09	-2.628681e+01	-1.695451e+02
2.800000e-06	-3.113876e-09	-6.874455e-09	-2.681029e+01	-1.755559e+02
2.810000e-06	-3.173525e-09	-7.115633e-09	-2.732385e+01	-1.814645e+02
2.820000e-06	-3.232064e-09	-7.351831e-09	-2.782787e+01	-1.872871e+02
2.830000e-06	-3.289367e-09	-7.575780e-09	-2.832125e+01	-1.930360e+02
2.840000e-06	-3.345492e-09	-7.794113e-09	-2.880448e+01	-1.986905e+02
2.850000e-06	-3.400336e-09	-8.012645e-09	-2.927669e+01	-2.042101e+02
2.860000e-06	-3.453590e-09	-8.223575e-09	-2.973520e+01	-2.095762e+02
2.870000e-06	-3.505264e-09	-8.424110e-09	-3.018011e+01	-2.148104e+02
2.880000e-06	-3.555499e-09	-8.621514e-09	-3.061262e+01	-2.199443e+02
2.890000e-06	-3.604118e-09	-8.821474e-09	-3.103123e+01	-2.249722e+02
2.900000e-06	-3.651095e-09	-9.021455e-09	-3.143570e+01	-2.298457e+02
2.910000e-06	-3.696716e-09	-9.213031e-09	-3.182849e+01	-2.345209e+02
2.920000e-06	-3.741142e-09	-9.390712e-09	-3.221100e+01	-2.390057e+02
2.930000e-06	-3.784383e-09	-9.557840e-09	-3.258330e+01	-2.433527e+02
