# Temperatura_=_20.0
# Concentracion g/m^3_=_10770.0
# C_Vs_to_Am_M_A/Vsm_=_116720831517.84952
# pendiente_HvsI_1/m_=_3716.3
# ordenada_HvsI_A/m_=_1297.0
# frecuencia_Hz_=_311771.52510940266
# Promedio de 31 ciclos

Tiempo_(s)	Campo_(V.s)	Magnetizacion_(V.s)	Campo_(kA/m)	Magnetizacion_(A/m)
0.000000e+00	-3.221121e-09	-1.447009e-09	-2.800518e+01	-1.633907e+02
1.000000e-08	-3.219763e-09	-1.449516e-09	-2.799337e+01	-1.629444e+02
2.000000e-08	-3.216988e-09	-1.446764e-09	-2.796924e+01	-1.625397e+02
3.000000e-08	-3.213145e-09	-1.445498e-09	-2.793583e+01	-1.623770e+02
4.000000e-08	-3.208385e-09	-1.445511e-09	-2.789445e+01	-1.622866e+02
5.000000e-08	-3.202520e-09	-1.441343e-09	-2.784346e+01	-1.618856e+02
6.000000e-08	-3.195548e-09	-1.429854e-09	-2.778284e+01	-1.610051e+02
7.000000e-08	-3.187652e-09	-1.405189e-09	-2.771419e+01	-1.599375e+02
8.000000e-08	-3.178544e-09	-1.410426e-09	-2.763500e+01	-1.592041e+02
9.000000e-08	-3.167567e-09	-1.489447e-09	-2.753956e+01	-1.590362e+02
1.000000e-07	-3.154618e-09	-1.520279e-09	-2.742698e+01	-1.590903e+02
1.100000e-07	-3.139903e-09	-1.486965e-09	-2.729905e+01	-1.587145e+02
1.200000e-07	-3.123828e-09	-1.368796e-09	-2.715928e+01	-1.575448e+02
1.300000e-07	-3.107036e-09	-1.254322e-09	-2.701329e+01	-1.558662e+02
1.400000e-07	-3.089465e-09	-1.443597e-09	-2.686053e+01	-1.543928e+02
1.500000e-07	-3.070688e-09	-1.492088e-09	-2.669727e+01	-1.536669e+02
1.600000e-07	-3.051013e-09	-1.213390e-09	-2.652622e+01	-1.536234e+02
1.700000e-07	-3.030532e-09	-1.311131e-09	-2.634815e+01	-1.536847e+02
1.800000e-07	-3.008704e-09	-1.497351e-09	-2.615837e+01	-1.532514e+02
1.900000e-07	-2.985760e-09	-1.249828e-09	-2.595888e+01	-1.521338e+02
2.000000e-07	-2.962162e-09	-1.172040e-09	-2.575372e+01	-1.506020e+02
2.100000e-07	-2.937358e-09	-1.373929e-09	-2.553807e+01	-1.491119e+02
2.200000e-07	-2.910913e-09	-1.231993e-09	-2.530815e+01	-1.480040e+02
2.300000e-07	-2.883314e-09	-1.114745e-09	-2.506819e+01	-1.473842e+02
2.400000e-07	-2.854761e-09	-1.318949e-09	-2.481995e+01	-1.471552e+02
2.500000e-07	-2.825221e-09	-1.230865e-09	-2.456312e+01	-1.470674e+02
2.600000e-07	-2.794851e-09	-1.113714e-09	-2.429907e+01	-1.467571e+02
2.700000e-07	-2.763483e-09	-1.271945e-09	-2.402635e+01	-1.458544e+02
2.800000e-07	-2.731028e-09	-1.200202e-09	-2.374418e+01	-1.441901e+02
2.900000e-07	-2.697542e-09	-1.056821e-09	-2.345304e+01	-1.419634e+02
3.000000e-07	-2.662860e-09	-1.144726e-09	-2.315151e+01	-1.396778e+02
3.100000e-07	-2.626986e-09	-1.125808e-09	-2.283962e+01	-1.378209e+02
3.200000e-07	-2.590110e-09	-1.110061e-09	-2.251901e+01	-1.365147e+02
3.300000e-07	-2.552231e-09	-1.159430e-09	-2.218967e+01	-1.354286e+02
3.400000e-07	-2.513367e-09	-1.062444e-09	-2.185178e+01	-1.340415e+02
3.500000e-07	-2.473754e-09	-1.057289e-09	-2.150738e+01	-1.320435e+02
3.600000e-07	-2.433407e-09	-1.093429e-09	-2.115659e+01	-1.295520e+02
3.700000e-07	-2.391954e-09	-9.806229e-10	-2.079618e+01	-1.269878e+02
3.800000e-07	-2.349232e-09	-9.784963e-10	-2.042476e+01	-1.247381e+02
3.900000e-07	-2.305503e-09	-1.055719e-09	-2.004457e+01	-1.228879e+02
4.000000e-07	-2.261012e-09	-9.811119e-10	-1.965775e+01	-1.212051e+02
4.100000e-07	-2.215753e-09	-9.661899e-10	-1.926425e+01	-1.193495e+02
4.200000e-07	-2.169638e-09	-9.865207e-10	-1.886332e+01	-1.171225e+02
4.300000e-07	-2.122682e-09	-9.079984e-10	-1.845508e+01	-1.145814e+02
4.400000e-07	-2.074988e-09	-8.850788e-10	-1.804041e+01	-1.119692e+02
4.500000e-07	-2.026448e-09	-9.060225e-10	-1.761839e+01	-1.095350e+02
4.600000e-07	-1.976816e-09	-8.724628e-10	-1.718688e+01	-1.073707e+02
4.700000e-07	-1.926086e-09	-8.533151e-10	-1.674582e+01	-1.053605e+02
4.800000e-07	-1.874395e-09	-8.667701e-10	-1.629640e+01	-1.032638e+02
4.900000e-07	-1.821860e-09	-8.326126e-10	-1.583966e+01	-1.008752e+02
5.000000e-07	-1.768600e-09	-7.915263e-10	-1.537660e+01	-9.815696e+01
5.100000e-07	-1.714734e-09	-7.630028e-10	-1.490827e+01	-9.526049e+01
5.200000e-07	-1.660262e-09	-7.408738e-10	-1.443468e+01	-9.242531e+01
5.300000e-07	-1.605161e-09	-7.328682e-10	-1.395562e+01	-8.982582e+01
5.400000e-07	-1.549578e-09	-7.173185e-10	-1.347237e+01	-8.746853e+01
5.500000e-07	-1.493624e-09	-6.904077e-10	-1.298589e+01	-8.520102e+01
5.600000e-07	-1.437173e-09	-6.772395e-10	-1.249509e+01	-8.281622e+01
5.700000e-07	-1.379985e-09	-6.605080e-10	-1.199789e+01	-8.017959e+01
5.800000e-07	-1.321946e-09	-6.237457e-10	-1.149328e+01	-7.730379e+01
5.900000e-07	-1.263140e-09	-6.021002e-10	-1.098201e+01	-7.433324e+01
6.000000e-07	-1.203780e-09	-5.781954e-10	-1.046592e+01	-7.145096e+01
6.100000e-07	-1.144089e-09	-5.555121e-10	-9.946950e+00	-6.876073e+01
6.200000e-07	-1.084148e-09	-5.452762e-10	-9.425808e+00	-6.621565e+01
6.300000e-07	-1.023875e-09	-5.262992e-10	-8.901785e+00	-6.364567e+01
6.400000e-07	-9.631839e-10	-4.894315e-10	-8.374118e+00	-6.087634e+01
6.500000e-07	-9.020850e-10	-4.581572e-10	-7.842909e+00	-5.785921e+01
6.600000e-07	-8.406513e-10	-4.373792e-10	-7.308790e+00	-5.471236e+01
6.700000e-07	-7.789730e-10	-4.121327e-10	-6.772544e+00	-5.163080e+01
6.800000e-07	-7.170922e-10	-3.903708e-10	-6.234538e+00	-4.873376e+01
6.900000e-07	-6.549532e-10	-3.700165e-10	-5.694287e+00	-4.597411e+01
7.000000e-07	-5.924603e-10	-3.502221e-10	-5.150958e+00	-4.318461e+01
7.100000e-07	-5.296596e-10	-3.242833e-10	-4.604955e+00	-4.021725e+01
7.200000e-07	-4.666629e-10	-2.952292e-10	-4.057247e+00	-3.705520e+01
7.300000e-07	-4.035045e-10	-2.647335e-10	-3.508133e+00	-3.381122e+01
7.400000e-07	-3.401981e-10	-2.358533e-10	-2.957732e+00	-3.063201e+01
7.500000e-07	-2.767947e-10	-2.155849e-10	-2.406487e+00	-2.759935e+01
7.600000e-07	-2.133485e-10	-1.971992e-10	-1.854870e+00	-2.469746e+01
7.700000e-07	-1.498900e-10	-1.724849e-10	-1.303147e+00	-2.184298e+01
7.800000e-07	-8.642093e-11	-1.394247e-10	-7.513316e-01	-1.893214e+01
7.900000e-07	-2.290297e-11	-1.108591e-10	-1.990910e-01	-1.587885e+01
8.000000e-07	4.063459e-11	-8.508290e-11	3.533200e-01	-1.264907e+01
8.100000e-07	1.041348e-10	-5.760811e-11	9.054060e-01	-9.290214e+00
8.200000e-07	1.675979e-10	-2.958707e-11	1.457170e+00	-5.924411e+00
8.300000e-07	2.310220e-10	-5.905100e-12	2.008594e+00	-2.680767e+00
8.400000e-07	2.943550e-10	1.531148e-11	2.559226e+00	3.997089e-01
8.500000e-07	3.575859e-10	3.969717e-11	3.108971e+00	3.404036e+00
8.600000e-07	4.207167e-10	6.767951e-11	3.657845e+00	6.482274e+00
8.700000e-07	4.837125e-10	1.009861e-10	4.205545e+00	9.726187e+00
8.800000e-07	5.465298e-10	1.299107e-10	4.751694e+00	1.310252e+01
8.900000e-07	6.090921e-10	1.535381e-10	5.295625e+00	1.650218e+01
9.000000e-07	6.713548e-10	1.782980e-10	5.836952e+00	1.984961e+01
9.100000e-07	7.333732e-10	2.086515e-10	6.376154e+00	2.315737e+01
9.200000e-07	7.951748e-10	2.370656e-10	6.913471e+00	2.647737e+01
9.300000e-07	8.566927e-10	2.615504e-10	7.448322e+00	2.981758e+01
9.400000e-07	9.178619e-10	2.890203e-10	7.980141e+00	3.312938e+01
9.500000e-07	9.786465e-10	3.203271e-10	8.508616e+00	3.638234e+01
9.600000e-07	1.039039e-09	3.512146e-10	9.033679e+00	3.963314e+01
9.700000e-07	1.099091e-09	3.769609e-10	9.555792e+00	4.299399e+01
9.800000e-07	1.158890e-09	4.015066e-10	1.007570e+01	4.651980e+01
9.900000e-07	1.218446e-09	4.289865e-10	1.059349e+01	5.013325e+01
1.000000e-06	1.277636e-09	4.605713e-10	1.110811e+01	5.367569e+01
1.010000e-06	1.336231e-09	4.898729e-10	1.161754e+01	5.703895e+01
1.020000e-06	1.394003e-09	5.168098e-10	1.211982e+01	6.024657e+01
1.030000e-06	1.450893e-09	5.434264e-10	1.261444e+01	6.340956e+01
1.040000e-06	1.507083e-09	5.715889e-10	1.310296e+01	6.661511e+01
1.050000e-06	1.562812e-09	6.007045e-10	1.358748e+01	6.986829e+01
1.060000e-06	1.618138e-09	6.259147e-10	1.406850e+01	7.313220e+01
1.070000e-06	1.672925e-09	6.510295e-10	1.454483e+01	7.639516e+01
1.080000e-06	1.727070e-09	6.774750e-10	1.501558e+01	7.967270e+01
1.090000e-06	1.780581e-09	7.055255e-10	1.548082e+01	8.294556e+01
1.100000e-06	1.833415e-09	7.313217e-10	1.594017e+01	8.612529e+01
1.110000e-06	1.885510e-09	7.540550e-10	1.639309e+01	8.911248e+01
1.120000e-06	1.936804e-09	7.754735e-10	1.683906e+01	9.189823e+01
1.130000e-06	1.987092e-09	7.965169e-10	1.727628e+01	9.459456e+01
1.140000e-06	2.036205e-09	8.203392e-10	1.770327e+01	9.734623e+01
1.150000e-06	2.084335e-09	8.448114e-10	1.812172e+01	1.002048e+02
1.160000e-06	2.131757e-09	8.695190e-10	1.853402e+01	1.030896e+02
1.170000e-06	2.178467e-09	8.937674e-10	1.894013e+01	1.058703e+02
1.180000e-06	2.224400e-09	9.177125e-10	1.933948e+01	1.084828e+02
1.190000e-06	2.269499e-09	9.381485e-10	1.973158e+01	1.109666e+02
1.200000e-06	2.313792e-09	9.547125e-10	2.011667e+01	1.134068e+02
1.210000e-06	2.357452e-09	9.719093e-10	2.049626e+01	1.158581e+02
1.220000e-06	2.400338e-09	9.914646e-10	2.086913e+01	1.183254e+02
1.230000e-06	2.442003e-09	1.013328e-09	2.123137e+01	1.207913e+02
1.240000e-06	2.482431e-09	1.034666e-09	2.158286e+01	1.232340e+02
1.250000e-06	2.521960e-09	1.053719e-09	2.192653e+01	1.256125e+02
1.260000e-06	2.560648e-09	1.070149e-09	2.226290e+01	1.278633e+02
1.270000e-06	2.598416e-09	1.086493e-09	2.259126e+01	1.299430e+02
1.280000e-06	2.635255e-09	1.103047e-09	2.291154e+01	1.318844e+02
1.290000e-06	2.671241e-09	1.119092e-09	2.322442e+01	1.337900e+02
1.300000e-06	2.706363e-09	1.134622e-09	2.352978e+01	1.357483e+02
1.310000e-06	2.740277e-09	1.151476e-09	2.382463e+01	1.377511e+02
1.320000e-06	2.772869e-09	1.169487e-09	2.410799e+01	1.397060e+02
1.330000e-06	2.804433e-09	1.186055e-09	2.438241e+01	1.415343e+02
1.340000e-06	2.835053e-09	1.200198e-09	2.464863e+01	1.432459e+02
1.350000e-06	2.864675e-09	1.211488e-09	2.490617e+01	1.449022e+02
1.360000e-06	2.893314e-09	1.222241e-09	2.515516e+01	1.465137e+02
1.370000e-06	2.921019e-09	1.233174e-09	2.539604e+01	1.480022e+02
1.380000e-06	2.947617e-09	1.244108e-09	2.562729e+01	1.492901e+02
1.390000e-06	2.972789e-09	1.254481e-09	2.584614e+01	1.504223e+02
1.400000e-06	2.996651e-09	1.264801e-09	2.605360e+01	1.515684e+02
1.410000e-06	3.019408e-09	1.275762e-09	2.625145e+01	1.528766e+02
1.420000e-06	3.041059e-09	1.287268e-09	2.643969e+01	1.543214e+02
1.430000e-06	3.061657e-09	1.298101e-09	2.661878e+01	1.557098e+02
1.440000e-06	3.081329e-09	1.307375e-09	2.678981e+01	1.568496e+02
1.450000e-06	3.099931e-09	1.316134e-09	2.695154e+01	1.577090e+02
1.460000e-06	3.117220e-09	1.323307e-09	2.710185e+01	1.584090e+02
1.470000e-06	3.133244e-09	1.328516e-09	2.724117e+01	1.590800e+02
1.480000e-06	3.148024e-09	1.332846e-09	2.736967e+01	1.597506e+02
1.490000e-06	3.161561e-09	1.337683e-09	2.748736e+01	1.603828e+02
1.500000e-06	3.173911e-09	1.343875e-09	2.759473e+01	1.609770e+02
1.510000e-06	3.184934e-09	1.349637e-09	2.769057e+01	1.615914e+02
1.520000e-06	3.194394e-09	1.353538e-09	2.777281e+01	1.622379e+02
1.530000e-06	3.202475e-09	1.356686e-09	2.784308e+01	1.627995e+02
1.540000e-06	3.209446e-09	1.359468e-09	2.790368e+01	1.631104e+02
1.550000e-06	3.215251e-09	1.360817e-09	2.795415e+01	1.631450e+02
1.560000e-06	3.219910e-09	1.361057e-09	2.799465e+01	1.630968e+02
1.570000e-06	3.223530e-09	1.361191e-09	2.802613e+01	1.632153e+02
1.580000e-06	3.225885e-09	1.362347e-09	2.804660e+01	1.635427e+02
1.590000e-06	3.226763e-09	1.365218e-09	2.805424e+01	1.638407e+02
1.600000e-06	3.226432e-09	1.366205e-09	2.805136e+01	1.638182e+02
1.610000e-06	3.225054e-09	1.362336e-09	2.803937e+01	1.634417e+02
1.620000e-06	3.222604e-09	1.358551e-09	2.801808e+01	1.629841e+02
1.630000e-06	3.219159e-09	1.352874e-09	2.798812e+01	1.627329e+02
1.640000e-06	3.214829e-09	1.344750e-09	2.795048e+01	1.626566e+02
1.650000e-06	3.209372e-09	1.339206e-09	2.790303e+01	1.624062e+02
1.660000e-06	3.202506e-09	1.342450e-09	2.784334e+01	1.616880e+02
1.670000e-06	3.194541e-09	1.367028e-09	2.777408e+01	1.606294e+02
1.680000e-06	3.185707e-09	1.353925e-09	2.769728e+01	1.597235e+02
1.690000e-06	3.175584e-09	1.247391e-09	2.760927e+01	1.593616e+02
1.700000e-06	3.163354e-09	1.212923e-09	2.750294e+01	1.594055e+02
1.710000e-06	3.148731e-09	1.243395e-09	2.737580e+01	1.592525e+02
1.720000e-06	3.132667e-09	1.378310e-09	2.723613e+01	1.583698e+02
1.730000e-06	3.116351e-09	1.393746e-09	2.709428e+01	1.568030e+02
1.740000e-06	3.099829e-09	1.179027e-09	2.695064e+01	1.551715e+02
1.750000e-06	3.082025e-09	1.250738e-09	2.679584e+01	1.541491e+02
1.760000e-06	3.062671e-09	1.451014e-09	2.662757e+01	1.539078e+02
1.770000e-06	3.042644e-09	1.246294e-09	2.645345e+01	1.540100e+02
1.780000e-06	3.021638e-09	1.158484e-09	2.627082e+01	1.538019e+02
1.790000e-06	2.998831e-09	1.469718e-09	2.607253e+01	1.529184e+02
1.800000e-06	2.974852e-09	1.391764e-09	2.586405e+01	1.514849e+02
1.810000e-06	2.950064e-09	1.163310e-09	2.564854e+01	1.499301e+02
1.820000e-06	2.923834e-09	1.379928e-09	2.542048e+01	1.486604e+02
1.830000e-06	2.896573e-09	1.407171e-09	2.518347e+01	1.478669e+02
1.840000e-06	2.868702e-09	1.186252e-09	2.494115e+01	1.475184e+02
1.850000e-06	2.839340e-09	1.348037e-09	2.468587e+01	1.474163e+02
1.860000e-06	2.808441e-09	1.392770e-09	2.441723e+01	1.472310e+02
1.870000e-06	2.776699e-09	1.193812e-09	2.414125e+01	1.465752e+02
1.880000e-06	2.743929e-09	1.329463e-09	2.385635e+01	1.451819e+02
1.890000e-06	2.710133e-09	1.369200e-09	2.356252e+01	1.431101e+02
1.900000e-06	2.675576e-09	1.210532e-09	2.326207e+01	1.407799e+02
1.910000e-06	2.640127e-09	1.304767e-09	2.295387e+01	1.387298e+02
1.920000e-06	2.603887e-09	1.226296e-09	2.263878e+01	1.372421e+02
1.930000e-06	2.566536e-09	1.137398e-09	2.231404e+01	1.361347e+02
1.940000e-06	2.527598e-09	1.291694e-09	2.197551e+01	1.349093e+02
1.950000e-06	2.487636e-09	1.165096e-09	2.162807e+01	1.331397e+02
1.960000e-06	2.446994e-09	1.122547e-09	2.127472e+01	1.307866e+02
1.970000e-06	2.405393e-09	1.281321e-09	2.091303e+01	1.281945e+02
1.980000e-06	2.362940e-09	1.109110e-09	2.054393e+01	1.258029e+02
1.990000e-06	2.319707e-09	1.049660e-09	2.016805e+01	1.238218e+02
2.000000e-06	2.275727e-09	1.170177e-09	1.978568e+01	1.221174e+02
2.010000e-06	2.231140e-09	1.043726e-09	1.939803e+01	1.203575e+02
2.020000e-06	2.185595e-09	1.030623e-09	1.900205e+01	1.182703e+02
2.030000e-06	2.138914e-09	1.095808e-09	1.859619e+01	1.158202e+02
2.040000e-06	2.091458e-09	1.007347e-09	1.818360e+01	1.132008e+02
2.050000e-06	2.043268e-09	9.956714e-10	1.776463e+01	1.106813e+02
2.060000e-06	1.994201e-09	9.919265e-10	1.733802e+01	1.084226e+02
2.070000e-06	1.944321e-09	9.406360e-10	1.690436e+01	1.063805e+02
2.080000e-06	1.893664e-09	9.234429e-10	1.646393e+01	1.043432e+02
2.090000e-06	1.842249e-09	9.004663e-10	1.601691e+01	1.020737e+02
2.100000e-06	1.790131e-09	8.960416e-10	1.556379e+01	9.946476e+01
2.110000e-06	1.737274e-09	8.871612e-10	1.510423e+01	9.660590e+01
2.120000e-06	1.683444e-09	8.489724e-10	1.463623e+01	9.372192e+01
2.130000e-06	1.628522e-09	8.188579e-10	1.415872e+01	9.102690e+01
2.140000e-06	1.572838e-09	7.938441e-10	1.367460e+01	8.859285e+01
2.150000e-06	1.516753e-09	7.776517e-10	1.318697e+01	8.631628e+01
2.160000e-06	1.460288e-09	7.489500e-10	1.269606e+01	8.399460e+01
2.170000e-06	1.403292e-09	7.242478e-10	1.220051e+01	8.145471e+01
2.180000e-06	1.345714e-09	7.176548e-10	1.169992e+01	7.865332e+01
2.190000e-06	1.287662e-09	6.777451e-10	1.119520e+01	7.569494e+01
2.200000e-06	1.229172e-09	6.564183e-10	1.068668e+01	7.276233e+01
2.210000e-06	1.170192e-09	6.402474e-10	1.017389e+01	6.999973e+01
2.220000e-06	1.110746e-09	5.906656e-10	9.657057e+00	6.741685e+01
2.230000e-06	1.050976e-09	5.749179e-10	9.137401e+00	6.487802e+01
2.240000e-06	9.909792e-10	5.634671e-10	8.615772e+00	6.219389e+01
2.250000e-06	9.307300e-10	5.341052e-10	8.091952e+00	5.925973e+01
2.260000e-06	8.701494e-10	5.125331e-10	7.565249e+00	5.613771e+01
2.270000e-06	8.091860e-10	4.813843e-10	7.035219e+00	5.301181e+01
2.280000e-06	7.478171e-10	4.527308e-10	6.501664e+00	5.004449e+01
2.290000e-06	6.860309e-10	4.280340e-10	5.964481e+00	4.725040e+01
2.300000e-06	6.237482e-10	3.949594e-10	5.422980e+00	4.449213e+01
2.310000e-06	5.609752e-10	3.716555e-10	4.877217e+00	4.159799e+01
2.320000e-06	4.979137e-10	3.470180e-10	4.328946e+00	3.849772e+01
2.330000e-06	4.346822e-10	3.229022e-10	3.779196e+00	3.526526e+01
2.340000e-06	3.712817e-10	3.021171e-10	3.227978e+00	3.204829e+01
2.350000e-06	3.077263e-10	2.663604e-10	2.675412e+00	2.895964e+01
2.360000e-06	2.440431e-10	2.332039e-10	2.121735e+00	2.601748e+01
2.370000e-06	1.802981e-10	2.098723e-10	1.567521e+00	2.315724e+01
2.380000e-06	1.165332e-10	1.909029e-10	1.013133e+00	2.027761e+01
2.390000e-06	5.272291e-11	1.682141e-10	4.583512e-01	1.728231e+01
2.400000e-06	-1.112396e-11	1.388150e-10	-9.674895e-02	1.411463e+01
2.410000e-06	-7.497662e-11	1.121965e-10	-6.518992e-01	1.079074e+01
2.420000e-06	-1.387991e-10	8.369024e-11	-1.206787e+00	7.410499e+00
2.430000e-06	-2.025697e-10	5.081964e-11	-1.761224e+00	4.111495e+00
2.440000e-06	-2.662968e-10	1.942767e-11	-2.315282e+00	9.756327e-01
2.450000e-06	-3.299622e-10	-1.046865e-11	-2.868805e+00	-2.040076e+00
2.460000e-06	-3.935200e-10	-3.443954e-11	-3.421392e+00	-5.076204e+00
2.470000e-06	-4.569000e-10	-5.571159e-11	-3.972432e+00	-8.258284e+00
2.480000e-06	-5.200299e-10	-8.493048e-11	-4.521297e+00	-1.159836e+01
2.490000e-06	-5.828837e-10	-1.171230e-10	-5.067763e+00	-1.500276e+01
2.500000e-06	-6.454220e-10	-1.478861e-10	-5.611485e+00	-1.837251e+01
2.510000e-06	-7.075429e-10	-1.743561e-10	-6.151577e+00	-2.168910e+01
2.520000e-06	-7.691842e-10	-2.039200e-10	-6.687500e+00	-2.500052e+01
2.530000e-06	-8.303080e-10	-2.387899e-10	-7.218924e+00	-2.833738e+01
2.540000e-06	-8.909485e-10	-2.666978e-10	-7.746146e+00	-3.166628e+01
2.550000e-06	-9.512625e-10	-2.909242e-10	-8.270530e+00	-3.493945e+01
2.560000e-06	-1.011355e-09	-3.166458e-10	-8.792991e+00	-3.817961e+01
2.570000e-06	-1.071234e-09	-3.470117e-10	-9.313595e+00	-4.148966e+01
2.580000e-06	-1.130839e-09	-3.819519e-10	-9.831810e+00	-4.495843e+01
2.590000e-06	-1.190042e-09	-4.158065e-10	-1.034653e+01	-4.855727e+01
2.600000e-06	-1.248767e-09	-4.467979e-10	-1.085711e+01	-5.214340e+01
2.610000e-06	-1.307038e-09	-4.765014e-10	-1.136372e+01	-5.557583e+01
2.620000e-06	-1.364842e-09	-5.056504e-10	-1.186629e+01	-5.882930e+01
2.630000e-06	-1.422105e-09	-5.347119e-10	-1.236415e+01	-6.199525e+01
2.640000e-06	-1.478789e-09	-5.609636e-10	-1.285697e+01	-6.518108e+01
2.650000e-06	-1.534984e-09	-5.856917e-10	-1.334554e+01	-6.842134e+01
2.660000e-06	-1.590779e-09	-6.152743e-10	-1.383064e+01	-7.168550e+01
2.670000e-06	-1.646044e-09	-6.472202e-10	-1.431112e+01	-7.494795e+01
2.680000e-06	-1.700480e-09	-6.777946e-10	-1.478440e+01	-7.821959e+01
2.690000e-06	-1.753889e-09	-7.070010e-10	-1.524875e+01	-8.150128e+01
2.700000e-06	-1.806364e-09	-7.362773e-10	-1.570498e+01	-8.472776e+01
2.710000e-06	-1.858095e-09	-7.652420e-10	-1.615474e+01	-8.779191e+01
2.720000e-06	-1.909110e-09	-7.934189e-10	-1.659828e+01	-9.064298e+01
2.730000e-06	-1.959403e-09	-8.189776e-10	-1.703553e+01	-9.335406e+01
2.740000e-06	-2.008865e-09	-8.407259e-10	-1.746557e+01	-9.607346e+01
2.750000e-06	-2.057261e-09	-8.643970e-10	-1.788633e+01	-9.889725e+01
2.760000e-06	-2.104626e-09	-8.905531e-10	-1.829814e+01	-1.017881e+02
2.770000e-06	-2.151208e-09	-9.152361e-10	-1.870313e+01	-1.046193e+02
2.780000e-06	-2.197074e-09	-9.377404e-10	-1.910190e+01	-1.072929e+02
2.790000e-06	-2.242147e-09	-9.610913e-10	-1.949378e+01	-1.098139e+02
2.800000e-06	-2.286501e-09	-9.860327e-10	-1.987940e+01	-1.122611e+02
2.810000e-06	-2.330233e-09	-1.009202e-09	-2.025962e+01	-1.147061e+02
2.820000e-06	-2.373219e-09	-1.031035e-09	-2.063334e+01	-1.171698e+02
2.830000e-06	-2.415330e-09	-1.052507e-09	-2.099947e+01	-1.196390e+02
2.840000e-06	-2.456538e-09	-1.075237e-09	-2.135774e+01	-1.220937e+02
2.850000e-06	-2.496922e-09	-1.099271e-09	-2.170884e+01	-1.245021e+02
2.860000e-06	-2.536555e-09	-1.121281e-09	-2.205343e+01	-1.268064e+02
2.870000e-06	-2.575086e-09	-1.140460e-09	-2.238842e+01	-1.289488e+02
2.880000e-06	-2.612276e-09	-1.156942e-09	-2.271176e+01	-1.309309e+02
2.890000e-06	-2.648463e-09	-1.174612e-09	-2.302638e+01	-1.328366e+02
2.900000e-06	-2.683810e-09	-1.193603e-09	-2.333369e+01	-1.347715e+02
2.910000e-06	-2.718182e-09	-1.210937e-09	-2.363253e+01	-1.367665e+02
2.920000e-06	-2.751523e-09	-1.226975e-09	-2.392241e+01	-1.387512e+02
2.930000e-06	-2.783928e-09	-1.242888e-09	-2.420414e+01	-1.406293e+02
